Frequency (Hz), Magnitude (dB)
0.000000, -0.036104
11.718750, -0.035901
23.437500, -0.035293
35.156250, -0.034286
46.875000, -0.032893
58.593750, -0.031128
70.312500, -0.029011
82.031250, -0.026566
93.750000, -0.023819
105.468750, -0.020801
117.187500, -0.017547
128.906250, -0.014092
140.625000, -0.010474
152.343750, -0.006735
164.062500, -0.002917
175.781250, 0.000938
187.500000, 0.004785
199.218750, 0.008581
210.937500, 0.012282
222.656250, 0.015845
234.375000, 0.019230
246.093750, 0.022395
257.812500, 0.025304
269.531250, 0.027921
281.250000, 0.030215
292.968750, 0.032156
304.687500, 0.033720
316.406250, 0.034886
328.125000, 0.035637
339.843750, 0.035960
351.562500, 0.035850
363.281250, 0.035302
375.000000, 0.034320
386.718750, 0.032912
398.437500, 0.031090
410.156250, 0.028872
421.875000, 0.026282
433.593750, 0.023348
445.312500, 0.020101
457.031250, 0.016580
468.750000, 0.012826
480.468750, 0.008884
492.187500, 0.004802
503.906250, 0.000633
515.625000, -0.003570
527.343750, -0.007751
539.062500, -0.011852
550.781250, -0.015815
562.500000, -0.019582
574.218750, -0.023097
585.937500, -0.026304
597.656250, -0.029150
609.375000, -0.031584
621.093750, -0.033561
632.812500, -0.035040
644.531250, -0.035984
656.250000, -0.036366
667.968750, -0.036162
679.687500, -0.035359
691.406250, -0.033951
703.125000, -0.031943
714.843750, -0.029349
726.562500, -0.026193
738.281250, -0.022510
750.000000, -0.018349
761.718750, -0.013767
773.437500, -0.008836
785.156250, -0.003638
796.875000, 0.001730
808.593750, 0.007161
820.312500, 0.012535
832.031250, 0.017719
843.750000, 0.022569
855.468750, 0.026929
867.187500, 0.030633
878.906250, 0.033502
890.625000, 0.035348
902.343750, 0.035972
914.062500, 0.035168
925.781250, 0.032717
937.500000, 0.028397
949.218750, 0.021975
960.937500, 0.013211
972.656250, 0.001861
984.375000, -0.012328
996.093750, -0.029611
1007.812500, -0.050250
1019.531250, -0.074509
1031.250000, -0.102659
1042.968750, -0.134971
1054.687500, -0.171719
1066.406250, -0.213182
1078.125000, -0.259639
1089.843750, -0.311370
1101.562500, -0.368659
1113.281250, -0.431789
1125.000000, -0.501045
1136.718750, -0.576713
1148.437500, -0.659080
1160.156250, -0.748433
1171.875000, -0.845061
1183.593750, -0.949252
1195.312500, -1.061295
1207.031250, -1.181481
1218.750000, -1.310101
1230.468750, -1.447443
1242.187500, -1.593801
1253.906250, -1.749465
1265.625000, -1.914727
1277.343750, -2.089877
1289.062500, -2.275207
1300.781250, -2.471004
1312.500000, -2.677558
1324.218750, -2.895152
1335.937500, -3.124068
1347.656250, -3.364580
1359.375000, -3.616957
1371.093750, -3.881459
1382.812500, -4.158333
1394.531250, -4.447808
1406.250000, -4.750098
1417.968750, -5.065388
1429.687500, -5.393833
1441.406250, -5.735548
1453.125000, -6.090601
1464.843750, -6.458998
1476.562500, -6.840671
1488.281250, -7.235465
1500.000000, -7.643112
1511.718750, -8.063212
1523.437500, -8.495207
1535.156250, -8.938343
1546.875000, -9.391641
1558.593750, -9.853849
1570.312500, -10.323398
1582.031250, -10.798351
1593.750000, -11.276346
1605.468750, -11.754546
1617.187500, -12.229584
1628.906250, -12.697522
1640.625000, -13.153828
1652.343750, -13.593374
1664.062500, -14.010481
1675.781250, -14.399003
1687.500000, -14.752481
1699.218750, -15.064359
1710.937500, -15.328259
1722.656250, -15.538315
1734.375000, -15.689521
1746.093750, -15.778070
1757.812500, -15.801636
1769.531250, -15.759550
1781.250000, -15.652856
1792.968750, -15.484231
1804.687500, -15.257775
1816.406250, -14.978718
1828.125000, -14.653075
1839.843750, -14.287298
1851.562500, -13.887951
1863.281250, -13.461450
1875.000000, -13.013859
1886.718750, -12.550751
1898.437500, -12.077134
1910.156250, -11.597420
1921.875000, -11.115427
1933.593750, -10.634411
1945.312500, -10.157110
1957.031250, -9.685797
1968.750000, -9.222330
1980.468750, -8.768214
1992.187500, -8.324644
2003.906250, -7.892554
2015.625000, -7.472657
2027.343750, -7.065483
2039.062500, -6.671405
2050.781250, -6.290670
2062.500000, -5.923419
2074.218750, -5.569707
2085.937500, -5.229518
2097.656250, -4.902776
2109.375000, -4.589362
2121.093750, -4.289115
2132.812500, -4.001846
2144.531250, -3.727341
2156.250000, -3.465367
2167.968750, -3.215674
2179.687500, -2.978003
2191.406250, -2.752082
2203.125000, -2.537634
2214.843750, -2.334376
2226.562500, -2.142019
2238.281250, -1.960273
2250.000000, -1.788845
2261.718750, -1.627439
2273.437500, -1.475758
2285.156250, -1.333506
2296.875000, -1.200383
2308.593750, -1.076091
2320.312500, -0.960330
2332.031250, -0.852799
2343.750000, -0.753199
2355.468750, -0.661228
2367.187500, -0.576586
2378.906250, -0.498972
2390.625000, -0.428083
2402.343750, -0.363620
2414.062500, -0.305280
2425.781250, -0.252762
2437.500000, -0.205768
2449.218750, -0.163996
2460.937500, -0.127150
2472.656250, -0.094932
2484.375000, -0.067047
2496.093750, -0.043204
2507.812500, -0.023113
2519.531250, -0.006489
2531.250000, 0.006950
2542.968750, 0.017481
2554.687500, 0.025375
2566.406250, 0.030896
2578.125000, 0.034303
2589.843750, 0.035845
2601.562500, 0.035765
2613.281250, 0.034294
2625.000000, 0.031655
2636.718750, 0.028059
2648.437500, 0.023708
2660.156250, 0.018788
2671.875000, 0.013476
2683.593750, 0.007935
2695.312500, 0.002312
2707.031250, -0.003255
2718.750000, -0.008646
2730.468750, -0.013754
2742.187500, -0.018485
2753.906250, -0.022760
2765.625000, -0.026516
2777.343750, -0.029699
2789.062500, -0.032273
2800.781250, -0.034211
2812.500000, -0.035500
2824.218750, -0.036138
2835.937500, -0.036135
2847.656250, -0.035508
2859.375000, -0.034286
2871.093750, -0.032504
2882.812500, -0.030206
2894.531250, -0.027439
2906.250000, -0.024259
2917.968750, -0.020723
2929.687500, -0.016894
2941.406250, -0.012833
2953.125000, -0.008607
2964.843750, -0.004279
2976.562500, 0.000085
2988.281250, 0.004422
3000.000000, 0.008672
3011.718750, 0.012776
3023.437500, 0.016680
3035.156250, 0.020333
3046.875000, 0.023689
3058.593750, 0.026708
3070.312500, 0.029353
3082.031250, 0.031593
3093.750000, 0.033405
3105.468750, 0.034771
3117.187500, 0.035676
3128.906250, 0.036115
3140.625000, 0.036087
3152.343750, 0.035597
3164.062500, 0.034655
3175.781250, 0.033278
3187.500000, 0.031487
3199.218750, 0.029307
3210.937500, 0.026768
3222.656250, 0.023905
3234.375000, 0.020755
3246.093750, 0.017358
3257.812500, 0.013757
3269.531250, 0.009997
3281.250000, 0.006125
3292.968750, 0.002187
3304.687500, -0.001769
3316.406250, -0.005696
3328.125000, -0.009547
3339.843750, -0.013278
3351.562500, -0.016845
3363.281250, -0.020207
3375.000000, -0.023326
3386.718750, -0.026167
3398.437500, -0.028697
3410.156250, -0.030889
3421.875000, -0.032720
3433.593750, -0.034169
3445.312500, -0.035222
3457.031250, -0.035869
3468.750000, -0.036104
3480.468750, -0.035926
3492.187500, -0.035339
3503.906250, -0.034352
3515.625000, -0.032977
3527.343750, -0.031232
3539.062500, -0.029138
3550.781250, -0.026721
3562.500000, -0.024007
3574.218750, -0.021030
3585.937500, -0.017823
3597.656250, -0.014422
3609.375000, -0.010867
3621.093750, -0.007197
3632.812500, -0.003453
3644.531250, 0.000323
3656.250000, 0.004091
3667.968750, 0.007809
3679.687500, 0.011436
3691.406250, 0.014934
3703.125000, 0.018264
3714.843750, 0.021393
3726.562500, 0.024286
3738.281250, 0.026913
3750.000000, 0.029246
3761.718750, 0.031263
3773.437500, 0.032941
3785.156250, 0.034264
3796.875000, 0.035218
3808.593750, 0.035796
3820.312500, 0.035990
3832.031250, 0.035801
3843.750000, 0.035230
3855.468750, 0.034285
3867.187500, 0.032977
3878.906250, 0.031319
3890.625000, 0.029331
3902.343750, 0.027033
3914.062500, 0.024450
3925.781250, 0.021610
3937.500000, 0.018543
3949.218750, 0.015282
3960.937500, 0.011860
3972.656250, 0.008314
3984.375000, 0.004682
3996.093750, 0.001001
4007.812500, -0.002690
4019.531250, -0.006353
4031.250000, -0.009948
4042.968750, -0.013439
4054.687500, -0.016789
4066.406250, -0.019964
4078.125000, -0.022930
4089.843750, -0.025656
4101.562500, -0.028115
4113.281250, -0.030281
4125.000000, -0.032131
4136.718750, -0.033647
4148.437500, -0.034814
4160.156250, -0.035619
4171.875000, -0.036055
4183.593750, -0.036117
4195.312500, -0.035805
4207.031250, -0.035124
4218.750000, -0.034080
4230.468750, -0.032685
4242.187500, -0.030954
4253.906250, -0.028904
4265.625000, -0.026559
4277.343750, -0.023941
4289.062500, -0.021080
4300.781250, -0.018003
4312.500000, -0.014744
4324.218750, -0.011336
4335.937500, -0.007814
4347.656250, -0.004215
4359.375000, -0.000574
4371.093750, 0.003070
4382.812500, 0.006681
4394.531250, 0.010222
4406.250000, 0.013656
4417.968750, 0.016950
4429.687500, 0.020070
4441.406250, 0.022985
4453.125000, 0.025666
4464.843750, 0.028085
4476.562500, 0.030219
4488.281250, 0.032047
4500.000000, 0.033550
4511.718750, 0.034714
4523.437500, 0.035527
4535.156250, 0.035981
4546.875000, 0.036073
4558.593750, 0.035801
4570.312500, 0.035169
4582.031250, 0.034182
4593.750000, 0.032852
4605.468750, 0.031191
4617.187500, 0.029216
4628.906250, 0.026947
4640.625000, 0.024408
4652.343750, 0.021623
4664.062500, 0.018620
4675.781250, 0.015429
4687.500000, 0.012083
4699.218750, 0.008615
4710.937500, 0.005060
4722.656250, 0.001453
4734.375000, -0.002170
4746.093750, -0.005772
4757.812500, -0.009317
4769.531250, -0.012770
4781.250000, -0.016095
4792.968750, -0.019261
4804.687500, -0.022234
4816.406250, -0.024985
4828.125000, -0.027486
4839.843750, -0.029713
4851.562500, -0.031643
4863.281250, -0.033256
4875.000000, -0.034537
4886.718750, -0.035473
4898.437500, -0.036054
4910.156250, -0.036275
4921.875000, -0.036134
4933.593750, -0.035632
4945.312500, -0.034775
4957.031250, -0.033571
4968.750000, -0.032033
4980.468750, -0.030177
4992.187500, -0.028020
5003.906250, -0.025585
5015.625000, -0.022897
5027.343750, -0.019982
5039.062500, -0.016870
5050.781250, -0.013592
5062.500000, -0.010180
5074.218750, -0.006670
5085.937500, -0.003095
5097.656250, 0.000509
5109.375000, 0.004105
5121.093750, 0.007659
5132.812500, 0.011135
5144.531250, 0.014499
5156.250000, 0.017718
5167.968750, 0.020760
5179.687500, 0.023595
5191.406250, 0.026196
5203.125000, 0.028537
5214.843750, 0.030595
5226.562500, 0.032350
5238.281250, 0.033785
5250.000000, 0.034887
5261.718750, 0.035644
5273.437500, 0.036049
5285.156250, 0.036099
5296.875000, 0.035794
5308.593750, 0.035135
5320.312500, 0.034130
5332.031250, 0.032790
5343.750000, 0.031126
5355.468750, 0.029155
5367.187500, 0.026897
5378.906250, 0.024374
5390.625000, 0.021610
5402.343750, 0.018633
5414.062500, 0.015472
5425.781250, 0.012158
5437.500000, 0.008723
5449.218750, 0.005202
5460.937500, 0.001629
5472.656250, -0.001962
5484.375000, -0.005534
5496.093750, -0.009052
5507.812500, -0.012482
5519.531250, -0.015790
5531.250000, -0.018942
5542.968750, -0.021909
5554.687500, -0.024661
5566.406250, -0.027170
5578.125000, -0.029412
5589.843750, -0.031364
5601.562500, -0.033007
5613.281250, -0.034325
5625.000000, -0.035305
5636.718750, -0.035937
5648.437500, -0.036215
5660.156250, -0.036137
5671.875000, -0.035703
5683.593750, -0.034918
5695.312500, -0.033789
5707.031250, -0.032329
5718.750000, -0.030551
5730.468750, -0.028473
5742.187500, -0.026116
5753.906250, -0.023504
5765.625000, -0.020662
5777.343750, -0.017618
5789.062500, -0.014403
5800.781250, -0.011048
5812.500000, -0.007587
5824.218750, -0.004053
5835.937500, -0.000482
5847.656250, 0.003093
5859.375000, 0.006635
5871.093750, 0.010110
5882.812500, 0.013484
5894.531250, 0.016724
5906.250000, 0.019799
5917.968750, 0.022678
5929.687500, 0.025335
5941.406250, 0.027742
5953.125000, 0.029878
5964.843750, 0.031720
5976.562500, 0.033252
5988.281250, 0.034458
6000.000000, 0.035328
6011.718750, 0.035852
6023.437500, 0.036025
6035.156250, 0.035847
6046.875000, 0.035319
6058.593750, 0.034446
6070.312500, 0.033236
6082.031250, 0.031702
6093.750000, 0.029858
6105.468750, 0.027722
6117.187500, 0.025316
6128.906250, 0.022661
6140.625000, 0.019785
6152.343750, 0.016715
6164.062500, 0.013481
6175.781250, 0.010114
6187.500000, 0.006648
6199.218750, 0.003115
6210.937500, -0.000449
6222.656250, -0.004009
6234.375000, -0.007531
6246.093750, -0.010981
6257.812500, -0.014324
6269.531250, -0.017528
6281.250000, -0.020562
6292.968750, -0.023394
6304.687500, -0.025999
6316.406250, -0.028350
6328.125000, -0.030423
6339.843750, -0.032200
6351.562500, -0.033661
6363.281250, -0.034793
6375.000000, -0.035585
6386.718750, -0.036028
6398.437500, -0.036119
6410.156250, -0.035857
6421.875000, -0.035244
6433.593750, -0.034286
6445.312500, -0.032994
6457.031250, -0.031379
6468.750000, -0.029458
6480.468750, -0.027250
6492.187500, -0.024776
6503.906250, -0.022061
6515.625000, -0.019132
6527.343750, -0.016018
6539.062500, -0.012748
6550.781250, -0.009355
6562.500000, -0.005873
6574.218750, -0.002336
6585.937500, 0.001223
6597.656250, 0.004768
6609.375000, 0.008265
6621.093750, 0.011680
6632.812500, 0.014980
6644.531250, 0.018132
6656.250000, 0.021106
6667.968750, 0.023874
6679.687500, 0.026409
6691.406250, 0.028685
6703.125000, 0.030682
6714.843750, 0.032380
6726.562500, 0.033762
6738.281250, 0.034816
6750.000000, 0.035532
6761.718750, 0.035901
6773.437500, 0.035922
6785.156250, 0.035594
6796.875000, 0.034919
6808.593750, 0.033905
6820.312500, 0.032562
6832.031250, 0.030901
6843.750000, 0.028940
6855.468750, 0.026697
6867.187500, 0.024194
6878.906250, 0.021455
6890.625000, 0.018506
6902.343750, 0.015377
6914.062500, 0.012096
6925.781250, 0.008697
6937.500000, 0.005212
6949.218750, 0.001675
6960.937500, -0.001880
6972.656250, -0.005418
6984.375000, -0.008904
6996.093750, -0.012305
7007.812500, -0.015588
7019.531250, -0.018720
7031.250000, -0.021671
7042.968750, -0.024411
7054.687500, -0.026915
7066.406250, -0.029157
7078.125000, -0.031115
7089.843750, -0.032771
7101.562500, -0.034108
7113.281250, -0.035112
7125.000000, -0.035774
7136.718750, -0.036088
7148.437500, -0.036050
7160.156250, -0.035661
7171.875000, -0.034924
7183.593750, -0.033847
7195.312500, -0.032441
7207.031250, -0.030719
7218.750000, -0.028698
7230.468750, -0.026398
7242.187500, -0.023842
7253.906250, -0.021054
7265.625000, -0.018062
7277.343750, -0.014896
7289.062500, -0.011586
7300.781250, -0.008164
7312.500000, -0.004664
7324.218750, -0.001120
7335.937500, 0.002434
7347.656250, 0.005962
7359.375000, 0.009432
7371.093750, 0.012809
7382.812500, 0.016061
7394.531250, 0.019156
7406.250000, 0.022064
7417.968750, 0.024758
7429.687500, 0.027211
7441.406250, 0.029399
7453.125000, 0.031303
7464.843750, 0.032903
7476.562500, 0.034184
7488.281250, 0.035134
7500.000000, 0.035743
7511.718750, 0.036006
7523.437500, 0.035921
7535.156250, 0.035487
7546.875000, 0.034710
7558.593750, 0.033597
7570.312500, 0.032157
7582.031250, 0.030406
7593.750000, 0.028360
7605.468750, 0.026039
7617.187500, 0.023464
7628.906250, 0.020661
7640.625000, 0.017656
7652.343750, 0.014479
7664.062500, 0.011160
7675.781250, 0.007732
7687.500000, 0.004226
7699.218750, 0.000677
7710.937500, -0.002879
7722.656250, -0.006410
7734.375000, -0.009881
7746.093750, -0.013258
7757.812500, -0.016508
7769.531250, -0.019599
7781.250000, -0.022502
7792.968750, -0.025188
7804.687500, -0.027630
7816.406250, -0.029806
7828.125000, -0.031693
7839.843750, -0.033274
7851.562500, -0.034532
7863.281250, -0.035456
7875.000000, -0.036037
7886.718750, -0.036268
7898.437500, -0.036147
7910.156250, -0.035676
7921.875000, -0.034860
7933.593750, -0.033706
7945.312500, -0.032225
7957.031250, -0.030433
7968.750000, -0.028346
7980.468750, -0.025986
7992.187500, -0.023375
8003.906250, -0.020539
8015.625000, -0.017505
8027.343750, -0.014303
8039.062500, -0.010965
8050.781250, -0.007522
8062.500000, -0.004008
8074.218750, -0.000457
8085.937500, 0.003095
8097.656250, 0.006616
8109.375000, 0.010071
8121.093750, 0.013426
8132.812500, 0.016650
8144.531250, 0.019711
8156.250000, 0.022580
8167.968750, 0.025229
8179.687500, 0.027633
8191.406250, 0.029769
8203.125000, 0.031616
8214.843750, 0.033157
8226.562500, 0.034377
8238.281250, 0.035264
8250.000000, 0.035810
8261.718750, 0.036010
8273.437500, 0.035862
8285.156250, 0.035367
8296.875000, 0.034530
8308.593750, 0.033360
8320.312500, 0.031867
8332.031250, 0.030065
8343.750000, 0.027973
8355.468750, 0.025610
8367.187500, 0.022998
8378.906250, 0.020164
8390.625000, 0.017134
8402.343750, 0.013937
8414.062500, 0.010604
8425.781250, 0.007168
8437.500000, 0.003661
8449.218750, 0.000118
8460.937500, -0.003428
8472.656250, -0.006941
8484.375000, -0.010388
8496.093750, -0.013736
8507.812500, -0.016952
8519.531250, -0.020004
8531.250000, -0.022862
8542.968750, -0.025500
8554.687500, -0.027891
8566.406250, -0.030011
8578.125000, -0.031841
8589.843750, -0.033362
8601.562500, -0.034560
8613.281250, -0.035422
8625.000000, -0.035940
8636.718750, -0.036109
8648.437500, -0.035928
8660.156250, -0.035398
8671.875000, -0.034525
8683.593750, -0.033317
8695.312500, -0.031786
8707.031250, -0.029946
8718.750000, -0.027817
8730.468750, -0.025418
8742.187500, -0.022774
8753.906250, -0.019910
8765.625000, -0.016854
8777.343750, -0.013636
8789.062500, -0.010286
8800.781250, -0.006839
8812.500000, -0.003326
8824.218750, 0.000217
8835.937500, 0.003756
8847.656250, 0.007258
8859.375000, 0.010688
8871.093750, 0.014014
8882.812500, 0.017203
8894.531250, 0.020224
8906.250000, 0.023049
8917.968750, 0.025650
8929.687500, 0.028002
8941.406250, 0.030083
8953.125000, 0.031873
8964.843750, 0.033355
8976.562500, 0.034515
8988.281250, 0.035341
9000.000000, 0.035825
9011.718750, 0.035963
9023.437500, 0.035754
9035.156250, 0.035200
9046.875000, 0.034305
9058.593750, 0.033079
9070.312500, 0.031533
9082.031250, 0.029682
9093.750000, 0.027544
9105.468750, 0.025138
9117.187500, 0.022489
9128.906250, 0.019622
9140.625000, 0.016563
9152.343750, 0.013343
9164.062500, 0.009993
9175.781250, 0.006544
9187.500000, 0.003030
9199.218750, -0.000514
9210.937500, -0.004056
9222.656250, -0.007560
9234.375000, -0.010993
9246.093750, -0.014321
9257.812500, -0.017511
9269.531250, -0.020534
9281.250000, -0.023359
9292.968750, -0.025960
9304.687500, -0.028309
9316.406250, -0.030386
9328.125000, -0.032169
9339.843750, -0.033641
9351.562500, -0.034787
9363.281250, -0.035596
9375.000000, -0.036061
9386.718750, -0.036177
9398.437500, -0.035943
9410.156250, -0.035360
9421.875000, -0.034435
9433.593750, -0.033177
9445.312500, -0.031597
9457.031250, -0.029712
9468.750000, -0.027540
9480.468750, -0.025102
9492.187500, -0.022421
9503.906250, -0.019524
9515.625000, -0.016440
9527.343750, -0.013197
9539.062500, -0.009828
9550.781250, -0.006364
9562.500000, -0.002841
9574.218750, 0.000709
9585.937500, 0.004251
9597.656250, 0.007750
9609.375000, 0.011174
9621.093750, 0.014488
9632.812500, 0.017662
9644.531250, 0.020664
9656.250000, 0.023467
9667.968750, 0.026042
9679.687500, 0.028366
9691.406250, 0.030416
9703.125000, 0.032173
9714.843750, 0.033619
9726.562500, 0.034742
9738.281250, 0.035529
9750.000000, 0.035975
9761.718750, 0.036074
9773.437500, 0.035826
9785.156250, 0.035233
9796.875000, 0.034300
9808.593750, 0.033038
9820.312500, 0.031456
9832.031250, 0.029572
9843.750000, 0.027402
9855.468750, 0.024968
9867.187500, 0.022293
9878.906250, 0.019403
9890.625000, 0.016325
9902.343750, 0.013088
9914.062500, 0.009725
9925.781250, 0.006267
9937.500000, 0.002747
9949.218750, -0.000800
9960.937500, -0.004340
9972.656250, -0.007840
9984.375000, -0.011264
9996.093750, -0.014580
10007.812500, -0.017756
10019.531250, -0.020761
10031.250000, -0.023566
10042.968750, -0.026143
10054.687500, -0.028467
10066.406250, -0.030516
10078.125000, -0.032270
10089.843750, -0.033712
10101.562500, -0.034827
10113.281250, -0.035605
10125.000000, -0.036038
10136.718750, -0.036122
10148.437500, -0.035856
10160.156250, -0.035243
10171.875000, -0.034288
10183.593750, -0.033002
10195.312500, -0.031397
10207.031250, -0.029487
10218.750000, -0.027294
10230.468750, -0.024836
10242.187500, -0.022139
10253.906250, -0.019229
10265.625000, -0.016134
10277.343750, -0.012885
10289.062500, -0.009512
10300.781250, -0.006048
10312.500000, -0.002528
10324.218750, 0.001015
10335.937500, 0.004547
10347.656250, 0.008033
10359.375000, 0.011440
10371.093750, 0.014735
