Frequency (Hz), Magnitude (dB)
0.000000, -6.638000
11.718750, -6.623716
23.437500, -6.581092
35.156250, -6.510798
46.875000, -6.413921
58.593750, -6.291921
70.312500, -6.146576
82.031250, -5.979920
93.750000, -5.794174
105.468750, -5.591680
117.187500, -5.374836
128.906250, -5.146046
140.625000, -4.907665
152.343750, -4.661961
164.062500, -4.411090
175.781250, -4.157067
187.500000, -3.901756
199.218750, -3.646863
210.937500, -3.393931
222.656250, -3.144343
234.375000, -2.899329
246.093750, -2.659971
257.812500, -2.427212
269.531250, -2.201868
281.250000, -1.984634
292.968750, -1.776097
304.687500, -1.576744
316.406250, -1.386974
328.125000, -1.207100
339.843750, -1.037363
351.562500, -0.877936
363.281250, -0.728931
375.000000, -0.590404
386.718750, -0.462361
398.437500, -0.344761
410.156250, -0.237519
421.875000, -0.140513
433.593750, -0.053581
445.312500, 0.023472
457.031250, 0.090872
468.750000, 0.148880
480.468750, 0.197782
492.187500, 0.237897
503.906250, 0.269567
515.625000, 0.293162
527.343750, 0.309079
539.062500, 0.317735
550.781250, 0.319575
562.500000, 0.315062
574.218750, 0.304682
585.937500, 0.288940
597.656250, 0.268358
609.375000, 0.243474
621.093750, 0.214840
632.812500, 0.183018
644.531250, 0.148576
656.250000, 0.112089
667.968750, 0.074131
679.687500, 0.035273
691.406250, -0.003920
703.125000, -0.042899
714.843750, -0.081129
726.562500, -0.118098
738.281250, -0.153322
750.000000, -0.186347
761.718750, -0.216758
773.437500, -0.244179
785.156250, -0.268282
796.875000, -0.288784
808.593750, -0.305456
820.312500, -0.318125
832.031250, -0.326669
843.750000, -0.331025
855.468750, -0.331186
867.187500, -0.327199
878.906250, -0.319164
890.625000, -0.307231
902.343750, -0.291598
914.062500, -0.272506
925.781250, -0.250234
937.500000, -0.225095
949.218750, -0.197429
960.937500, -0.167602
972.656250, -0.135996
984.375000, -0.103005
996.093750, -0.069032
1007.812500, -0.034480
1019.531250, 0.000248
1031.250000, 0.034760
1042.968750, 0.068670
1054.687500, 0.101611
1066.406250, 0.133231
1078.125000, 0.163202
1089.843750, 0.191217
1101.562500, 0.216995
1113.281250, 0.240285
1125.000000, 0.260862
1136.718750, 0.278533
1148.437500, 0.293136
1160.156250, 0.304541
1171.875000, 0.312650
1183.593750, 0.317398
1195.312500, 0.318751
1207.031250, 0.316712
1218.750000, 0.311311
1230.468750, 0.302613
1242.187500, 0.290714
1253.906250, 0.275739
1265.625000, 0.257843
1277.343750, 0.237208
1289.062500, 0.214045
1300.781250, 0.188588
1312.500000, 0.161096
1324.218750, 0.131846
1335.937500, 0.101139
1347.656250, 0.069287
1359.375000, 0.036620
1371.093750, 0.003475
1382.812500, -0.029800
1394.531250, -0.062856
1406.250000, -0.095342
1417.968750, -0.126911
1429.687500, -0.157223
1441.406250, -0.185951
1453.125000, -0.212779
1464.843750, -0.237415
1476.562500, -0.259587
1488.281250, -0.279050
1500.000000, -0.295588
1511.718750, -0.309018
1523.437500, -0.319193
1535.156250, -0.326001
1546.875000, -0.329370
1558.593750, -0.329268
1570.312500, -0.325701
1582.031250, -0.318715
1593.750000, -0.308397
1605.468750, -0.294869
1617.187500, -0.278289
1628.906250, -0.258849
1640.625000, -0.236770
1652.343750, -0.212303
1664.062500, -0.185718
1675.781250, -0.157310
1687.500000, -0.127388
1699.218750, -0.096272
1710.937500, -0.064294
1722.656250, -0.031789
1734.375000, 0.000908
1746.093750, 0.033463
1757.812500, 0.065548
1769.531250, 0.096844
1781.250000, 0.127044
1792.968750, 0.155855
1804.687500, 0.183002
1816.406250, 0.208227
1828.125000, 0.231294
1839.843750, 0.251991
1851.562500, 0.270127
1863.281250, 0.285538
1875.000000, 0.298086
1886.718750, 0.307659
1898.437500, 0.314174
1910.156250, 0.317573
1921.875000, 0.317830
1933.593750, 0.314944
1945.312500, 0.308943
1957.031250, 0.299885
1968.750000, 0.287853
1980.468750, 0.272958
1992.187500, 0.255338
2003.906250, 0.235155
2015.625000, 0.212597
2027.343750, 0.187873
2039.062500, 0.161215
2050.781250, 0.132876
2062.500000, 0.103125
2074.218750, 0.072249
2085.937500, 0.040546
2097.656250, 0.008326
2109.375000, -0.024090
2121.093750, -0.056381
2132.812500, -0.088219
2144.531250, -0.119281
2156.250000, -0.149246
2167.968750, -0.177804
2179.687500, -0.204655
2191.406250, -0.229515
2203.125000, -0.252119
2214.843750, -0.272226
2226.562500, -0.289618
2238.281250, -0.304107
2250.000000, -0.315535
2261.718750, -0.323778
2273.437500, -0.328748
2285.156250, -0.330389
2296.875000, -0.328686
2308.593750, -0.323660
2320.312500, -0.315367
2332.031250, -0.303901
2343.750000, -0.289389
2355.468750, -0.271991
2367.187500, -0.251898
2378.906250, -0.229328
2390.625000, -0.204525
2402.343750, -0.177752
2414.062500, -0.149294
2425.781250, -0.119448
2437.500000, -0.088523
2449.218750, -0.056835
2460.937500, -0.024705
2472.656250, 0.007544
2484.375000, 0.039596
2496.093750, 0.071135
2507.812500, 0.101858
2519.531250, 0.131472
2531.250000, 0.159696
2542.968750, 0.186267
2554.687500, 0.210940
2566.406250, 0.233488
2578.125000, 0.253707
2589.843750, 0.271415
2601.562500, 0.286455
2613.281250, 0.298693
2625.000000, 0.308021
2636.718750, 0.314358
2648.437500, 0.317650
2660.156250, 0.317868
2671.875000, 0.315011
2683.593750, 0.309107
2695.312500, 0.300207
2707.031250, 0.288391
2718.750000, 0.273766
2730.468750, 0.256461
2742.187500, 0.236633
2753.906250, 0.214462
2765.625000, 0.190148
2777.343750, 0.163914
2789.062500, 0.136004
2800.781250, 0.106677
2812.500000, 0.076210
2824.218750, 0.044891
2835.937500, 0.013022
2847.656250, -0.019089
2859.375000, -0.051126
2871.093750, -0.082772
2882.812500, -0.113710
2894.531250, -0.143627
2906.250000, -0.172218
2917.968750, -0.199188
2929.687500, -0.224255
2941.406250, -0.247158
2953.125000, -0.267653
2964.843750, -0.285523
2976.562500, -0.300576
2988.281250, -0.312651
3000.000000, -0.321617
3011.718750, -0.327378
3023.437500, -0.329872
3035.156250, -0.329072
3046.875000, -0.324987
3058.593750, -0.317664
3070.312500, -0.307183
3082.031250, -0.293659
3093.750000, -0.277238
3105.468750, -0.258098
3117.187500, -0.236444
3128.906250, -0.212507
3140.625000, -0.186540
3152.343750, -0.158814
3164.062500, -0.129616
3175.781250, -0.099246
3187.500000, -0.068013
3199.218750, -0.036229
3210.937500, -0.004211
3222.656250, 0.027727
3234.375000, 0.059276
3246.093750, 0.090132
3257.812500, 0.120002
3269.531250, 0.148607
3281.250000, 0.175680
3292.968750, 0.200973
3304.687500, 0.224256
3316.406250, 0.245317
3328.125000, 0.263969
3339.843750, 0.280045
3351.562500, 0.293405
3363.281250, 0.303931
3375.000000, 0.311531
3386.718750, 0.316140
3398.437500, 0.317717
3410.156250, 0.316250
3421.875000, 0.311752
3433.593750, 0.304263
3445.312500, 0.293849
3457.031250, 0.280601
3468.750000, 0.264637
3480.468750, 0.246099
3492.187500, 0.225151
3503.906250, 0.201981
3515.625000, 0.176800
3527.343750, 0.149836
3539.062500, 0.121338
3550.781250, 0.091570
3562.500000, 0.060810
3574.218750, 0.029350
3585.937500, -0.002508
3597.656250, -0.034458
3609.375000, -0.066187
3621.093750, -0.097382
3632.812500, -0.127731
3644.531250, -0.156928
3656.250000, -0.184676
3667.968750, -0.210690
3679.687500, -0.234699
3691.406250, -0.256454
3703.125000, -0.275724
3714.843750, -0.292306
3726.562500, -0.306023
3738.281250, -0.316727
3750.000000, -0.324304
3761.718750, -0.328673
3773.437500, -0.329787
3785.156250, -0.327633
3796.875000, -0.322236
3808.593750, -0.313655
3820.312500, -0.301982
3832.031250, -0.287344
3843.750000, -0.269898
3855.468750, -0.249831
3867.187500, -0.227353
3878.906250, -0.202703
3890.625000, -0.176137
3902.343750, -0.147930
3914.062500, -0.118371
3925.781250, -0.087759
3937.500000, -0.056401
3949.218750, -0.024609
3960.937500, 0.007307
3972.656250, 0.039035
3984.375000, 0.070272
3996.093750, 0.100722
4007.812500, 0.130099
4019.531250, 0.158129
4031.250000, 0.184557
4042.968750, 0.209140
4054.687500, 0.231658
4066.406250, 0.251909
4078.125000, 0.269714
4089.843750, 0.284916
4101.562500, 0.297382
4113.281250, 0.307004
4125.000000, 0.313698
4136.718750, 0.317408
4148.437500, 0.318100
4160.156250, 0.315771
4171.875000, 0.310439
4183.593750, 0.302153
4195.312500, 0.290983
4207.031250, 0.277028
4218.750000, 0.260409
4230.468750, 0.241273
4242.187500, 0.219790
4253.906250, 0.196150
4265.625000, 0.170566
4277.343750, 0.143270
4289.062500, 0.114509
4300.781250, 0.084550
4312.500000, 0.053671
4324.218750, 0.022163
4335.937500, -0.009676
4347.656250, -0.041540
4359.375000, -0.073119
4371.093750, -0.104104
4382.812500, -0.134189
4394.531250, -0.163071
4406.250000, -0.190460
4417.968750, -0.216076
4429.687500, -0.239656
4441.406250, -0.260956
4453.125000, -0.279753
4464.843750, -0.295851
4476.562500, -0.309080
4488.281250, -0.319299
4500.000000, -0.326401
4511.718750, -0.330310
4523.437500, -0.330987
4535.156250, -0.328423
4546.875000, -0.322649
4558.593750, -0.313727
4570.312500, -0.301752
4582.031250, -0.286855
4593.750000, -0.269194
4605.468750, -0.248955
4617.187500, -0.226352
4628.906250, -0.201619
4640.625000, -0.175014
4652.343750, -0.146807
4664.062500, -0.117284
4675.781250, -0.086743
4687.500000, -0.055485
4699.218750, -0.023817
4710.937500, 0.007954
4722.656250, 0.039523
4734.375000, 0.070591
4746.093750, 0.100868
4757.812500, 0.130073
4769.531250, 0.157938
4781.250000, 0.184213
4792.968750, 0.208660
4804.687500, 0.231063
4816.406250, 0.251226
4828.125000, 0.268973
4839.843750, 0.284151
4851.562500, 0.296629
4863.281250, 0.306303
4875.000000, 0.313091
4886.718750, 0.316937
4898.437500, 0.317809
4910.156250, 0.315703
4921.875000, 0.310638
4933.593750, 0.302659
4945.312500, 0.291836
4957.031250, 0.278265
4968.750000, 0.262064
4980.468750, 0.243374
4992.187500, 0.222359
5003.906250, 0.199207
5015.625000, 0.174121
5027.343750, 0.147327
5039.062500, 0.119065
5050.781250, 0.089592
5062.500000, 0.059179
5074.218750, 0.028107
5085.937500, -0.003335
5097.656250, -0.034851
5109.375000, -0.066141
5121.093750, -0.096905
5132.812500, -0.126845
5144.531250, -0.155668
5156.250000, -0.183092
5167.968750, -0.208843
5179.687500, -0.232665
5191.406250, -0.254319
5203.125000, -0.273585
5214.843750, -0.290269
5226.562500, -0.304202
5238.281250, -0.315243
5250.000000, -0.323280
5261.718750, -0.328234
5273.437500, -0.330057
5285.156250, -0.328735
5296.875000, -0.324285
5308.593750, -0.316759
5320.312500, -0.306240
5332.031250, -0.292841
5343.750000, -0.276705
5355.468750, -0.258001
5367.187500, -0.236925
5378.906250, -0.213693
5390.625000, -0.188540
5402.343750, -0.161721
5414.062500, -0.133500
5425.781250, -0.104155
5437.500000, -0.073969
5449.218750, -0.043232
5460.937500, -0.012230
5472.656250, 0.018746
5484.375000, 0.049415
5496.093750, 0.079500
5507.812500, 0.108733
5519.531250, 0.136860
5531.250000, 0.163638
5542.968750, 0.188841
5554.687500, 0.212257
5566.406250, 0.233696
5578.125000, 0.252985
5589.843750, 0.269972
5601.562500, 0.284525
5613.281250, 0.296535
5625.000000, 0.305914
5636.718750, 0.312599
5648.437500, 0.316548
5660.156250, 0.317740
5671.875000, 0.316180
5683.593750, 0.311893
5695.312500, 0.304928
5707.031250, 0.295353
5718.750000, 0.283258
5730.468750, 0.268755
5742.187500, 0.251972
5753.906250, 0.233058
5765.625000, 0.212176
5777.343750, 0.189507
5789.062500, 0.165246
5800.781250, 0.139601
5812.500000, 0.112789
5824.218750, 0.085038
5835.937500, 0.056582
5847.656250, 0.027661
5859.375000, -0.001482
5871.093750, -0.030606
5882.812500, -0.059467
5894.531250, -0.087829
5906.250000, -0.115462
5917.968750, -0.142142
5929.687500, -0.167660
5941.406250, -0.191818
5953.125000, -0.214433
5964.843750, -0.235341
5976.562500, -0.254395
5988.281250, -0.271471
6000.000000, -0.286463
6011.718750, -0.299293
6023.437500, -0.309901
6035.156250, -0.318255
6046.875000, -0.324343
6058.593750, -0.328180
6070.312500, -0.329800
6082.031250, -0.329262
6093.750000, -0.326643
6105.468750, -0.322042
6117.187500, -0.315572
6128.906250, -0.307365
6140.625000, -0.297563
6152.343750, -0.286321
6164.062500, -0.273802
6175.781250, -0.260176
6187.500000, -0.245617
6199.218750, -0.230300
6210.937500, -0.214399
6222.656250, -0.198088
6234.375000, -0.181532
6246.093750, -0.164892
6257.812500, -0.148318
6269.531250, -0.131952
6281.250000, -0.115922
6292.968750, -0.100342
6304.687500, -0.085315
6316.406250, -0.070925
6328.125000, -0.057242
6339.843750, -0.044319
6351.562500, -0.032193
6363.281250, -0.020883
6375.000000, -0.010392
6386.718750, -0.000706
6398.437500, 0.008203
6410.156250, 0.016380
6421.875000, 0.023882
6433.593750, 0.030780
6445.312500, 0.037156
6457.031250, 0.043102
6468.750000, 0.048717
6480.468750, 0.054109
6492.187500, 0.059386
6503.906250, 0.064663
6515.625000, 0.070050
6527.343750, 0.075659
6539.062500, 0.081594
6550.781250, 0.087953
6562.500000, 0.094825
6574.218750, 0.102286
6585.937500, 0.110400
6597.656250, 0.119211
6609.375000, 0.128750
6621.093750, 0.139023
6632.812500, 0.150018
6644.531250, 0.161698
6656.250000, 0.174003
6667.968750, 0.186846
6679.687500, 0.200116
6691.406250, 0.213676
6703.125000, 0.227363
6714.843750, 0.240987
6726.562500, 0.254332
6738.281250, 0.267160
6750.000000, 0.279207
6761.718750, 0.290187
6773.437500, 0.299792
6785.156250, 0.307695
6796.875000, 0.313549
6808.593750, 0.316990
6820.312500, 0.317641
6832.031250, 0.315107
6843.750000, 0.308984
6855.468750, 0.298855
6867.187500, 0.284295
6878.906250, 0.264869
6890.625000, 0.240137
6902.343750, 0.209651
6914.062500, 0.172959
6925.781250, 0.129604
6937.500000, 0.079124
6949.218750, 0.021056
6960.937500, -0.045070
6972.656250, -0.119725
6984.375000, -0.203384
6996.093750, -0.296527
7007.812500, -0.399640
7019.531250, -0.513211
7031.250000, -0.637739
7042.968750, -0.773727
7054.687500, -0.921689
7066.406250, -1.082151
7078.125000, -1.255651
7089.843750, -1.442741
7101.562500, -1.643993
7113.281250, -1.859999
7125.000000, -2.091374
7136.718750, -2.338761
7148.437500, -2.602834
7160.156250, -2.884306
7171.875000, -3.183930
7183.593750, -3.502508
7195.312500, -3.840897
7207.031250, -4.200018
7218.750000, -4.580866
7230.468750, -4.984521
7242.187500, -5.412163
7253.906250, -5.865085
7265.625000, -6.344714
7277.343750, -6.852638
7289.062500, -7.390626
7300.781250, -7.960673
7312.500000, -8.565036
7324.218750, -9.206293
7335.937500, -9.887410
7347.656250, -10.611837
7359.375000, -11.383617
7371.093750, -12.207553
7382.812500, -13.089413
7394.531250, -14.036231
7406.250000, -15.056722
7417.968750, -16.161893
7429.687500, -17.365958
7441.406250, -18.687769
7453.125000, -20.153154
7464.843750, -21.798954
7476.562500, -23.680514
7488.281250, -25.886890
7500.000000, -28.575948
7511.718750, -32.071948
7523.437500, -37.238116
7535.156250, -48.525271
7546.875000, -45.870493
7558.593750, -37.870782
7570.312500, -34.266959
7582.031250, -32.100683
7593.750000, -30.675806
7605.468750, -29.717361
7617.187500, -29.090183
7628.906250, -28.719684
7640.625000, -28.562400
7652.343750, -28.593164
7664.062500, -28.799065
7675.781250, -29.176725
7687.500000, -29.731576
7699.218750, -30.478845
7710.937500, -31.446664
7722.656250, -32.682812
7734.375000, -34.269136
7746.093750, -36.355239
7757.812500, -39.252014
7769.531250, -43.783964
7781.250000, -54.034566
7792.968750, -52.109060
7804.687500, -43.255056
7816.406250, -39.064145
7828.125000, -36.353856
7839.843750, -34.397025
7851.562500, -32.907272
7863.281250, -31.742333
7875.000000, -30.821502
7886.718750, -30.094965
7898.437500, -29.530249
7910.156250, -29.105483
7921.875000, -28.805768
7933.593750, -28.621115
7945.312500, -28.545246
7957.031250, -28.574918
7968.750000, -28.709600
7980.468750, -28.951432
7992.187500, -29.305460
8003.906250, -29.780188
8015.625000, -30.388599
8027.343750, -31.149913
8039.062500, -32.092653
8050.781250, -33.260236
8062.500000, -34.721944
8074.218750, -36.596816
8085.937500, -39.114368
8097.656250, -42.811791
8109.375000, -49.568959
8121.093750, -64.193518
8132.812500, -46.853831
8144.531250, -41.503370
8156.250000, -38.287546
8167.968750, -36.022424
8179.687500, -34.307612
8191.406250, -32.958736
8203.125000, -31.875797
8214.843750, -30.998751
8226.562500, -30.289022
8238.281250, -29.720677
8250.000000, -29.275799
8261.718750, -28.941872
8273.437500, -28.710249
8285.156250, -28.575221
8296.875000, -28.533468
8308.593750, -28.583759
8320.312500, -28.726849
8332.031250, -28.965550
8343.750000, -29.304984
8355.468750, -29.753083
8367.187500, -30.321427
8378.906250, -31.026639
8390.625000, -31.892738
8402.343750, -32.955269
8414.062500, -34.269059
8425.781250, -35.924130
8437.500000, -38.082808
8449.218750, -41.084509
8460.937500, -45.857024
8472.656250, -57.622052
8484.375000, -52.127624
8496.093750, -44.101161
8507.812500, -40.060672
8519.531250, -37.380978
8531.250000, -35.408175
8542.968750, -33.876977
8554.687500, -32.653446
8566.406250, -31.660734
8578.125000, -30.850929
8589.843750, -30.192429
8601.562500, -29.663595
8613.281250, -29.249290
8625.000000, -28.938870
8636.718750, -28.724978
8648.437500, -28.602808
8660.156250, -28.569666
8671.875000, -28.624743
8683.593750, -28.769043
8695.312500, -29.005470
8707.031250, -29.339088
8718.750000, -29.777579
8730.468750, -30.332036
8742.187500, -31.018246
8753.906250, -31.858828
8765.625000, -32.886965
8777.343750, -34.153286
8789.062500, -35.739743
8800.781250, -37.791092
8812.500000, -40.600198
8824.218750, -44.918121
8835.937500, -54.130850
8847.656250, -55.068936
8859.375000, -45.232358
8871.093750, -40.790804
8882.812500, -37.929291
8894.531250, -35.849108
8906.250000, -34.244348
8917.968750, -32.965193
8929.687500, -31.927286
8941.406250, -31.078678
8953.125000, -30.385377
8964.843750, -29.824213
8976.562500, -29.378986
8988.281250, -29.038262
9000.000000, -28.794047
9011.718750, -28.640973
9023.437500, -28.575808
9035.156250, -28.597178
9046.875000, -28.705454
9058.593750, -28.902787
9070.312500, -29.193284
9082.031250, -29.583372
9093.750000, -30.082413
9105.468750, -30.703713
9117.187500, -31.466169
9128.906250, -32.397074
9140.625000, -33.537119
9152.343750, -34.950001
9164.062500, -36.742856
9175.781250, -39.116366
9187.500000, -42.518405
9199.218750, -48.354451
9210.937500, -78.167914
9222.656250, -48.932959
9234.375000, -42.806486
9246.093750, -39.307119
9257.812500, -36.884438
9269.531250, -35.061573
9281.250000, -33.628147
9292.968750, -32.472847
9304.687500, -31.529857
9316.406250, -30.757288
9328.125000, -30.127098
9339.843750, -29.619884
9351.562500, -29.221969
9363.281250, -28.923698
9375.000000, -28.718391
9386.718750, -28.601704
9398.437500, -28.571248
9410.156250, -28.626390
9421.875000, -28.768201
9433.593750, -28.999548
9445.312500, -29.325329
9457.031250, -29.752920
9468.750000, -30.292895
9480.468750, -30.960218
9492.187500, -31.776197
9503.906250, -32.771850
9515.625000, -33.994055
9527.343750, -35.517703
9539.062500, -37.472632
9550.781250, -40.113891
9562.500000, -44.060801
9574.218750, -51.700166
9585.937500, -59.245849
9597.656250, -46.428289
9609.375000, -41.510321
9621.093750, -38.449143
9632.812500, -36.256037
9644.531250, -34.576352
9656.250000, -33.242059
9667.968750, -32.160432
9679.687500, -31.275114
9691.406250, -30.549551
9703.125000, -29.958955
9714.843750, -29.486035
9726.562500, -29.118561
9738.281250, -28.847915
9750.000000, -28.668204
9761.718750, -28.575710
9773.437500, -28.568574
9785.156250, -28.646642
9796.875000, -28.811457
9808.593750, -29.066380
9820.312500, -29.416878
9832.031250, -29.871023
9843.750000, -30.440307
9855.468750, -31.140973
9867.187500, -31.996221
9878.906250, -33.040062
9890.625000, -34.324450
9902.343750, -35.933731
9914.062500, -38.017688
9925.781250, -40.882128
9937.500000, -45.325401
9949.218750, -55.159197
9960.937500, -54.235394
9972.656250, -45.018999
9984.375000, -40.699817
9996.093750, -37.889074
10007.812500, -35.835334
10019.531250, -34.245576
10031.250000, -32.974930
10042.968750, -31.941338
10054.687500, -31.094049
10066.406250, -30.399749
10078.125000, -29.835660
10089.843750, -29.385811
10101.562500, -29.038888
10113.281250, -28.786939
10125.000000, -28.624576
10136.718750, -28.548484
10148.437500, -28.557151
10160.156250, -28.650734
10171.875000, -28.831083
10183.593750, -29.101883
10195.312500, -29.468973
10207.031250, -29.940883
10218.750000, -30.529710
