Frequency (Hz), Magnitude (dB)
0.000000, -0.194051
11.718750, -0.193183
23.437500, -0.190586
35.156250, -0.186285
46.875000, -0.180319
58.593750, -0.172744
70.312500, -0.163629
82.031250, -0.153060
93.750000, -0.141132
105.468750, -0.127956
117.187500, -0.113652
128.906250, -0.098350
140.625000, -0.082191
152.343750, -0.065319
164.062500, -0.047887
175.781250, -0.030053
187.500000, -0.011975
199.218750, 0.006185
210.937500, 0.024265
222.656250, 0.042104
234.375000, 0.059545
246.093750, 0.076433
257.812500, 0.092619
269.531250, 0.107960
281.250000, 0.122321
292.968750, 0.135573
304.687500, 0.147600
316.406250, 0.158293
328.125000, 0.167556
339.843750, 0.175304
351.562500, 0.181465
363.281250, 0.185979
375.000000, 0.188801
386.718750, 0.189899
398.437500, 0.189257
410.156250, 0.186870
421.875000, 0.182752
433.593750, 0.176929
445.312500, 0.169444
457.031250, 0.160353
468.750000, 0.149727
480.468750, 0.137654
492.187500, 0.124231
503.906250, 0.109574
515.625000, 0.093807
527.343750, 0.077069
539.062500, 0.059511
550.781250, 0.041290
562.500000, 0.022578
574.218750, 0.003550
585.937500, -0.015609
597.656250, -0.034712
609.375000, -0.053565
621.093750, -0.071975
632.812500, -0.089748
644.531250, -0.106694
656.250000, -0.122623
667.968750, -0.137355
679.687500, -0.150717
691.406250, -0.162546
703.125000, -0.172691
714.843750, -0.181018
726.562500, -0.187406
738.281250, -0.191755
750.000000, -0.193984
761.718750, -0.194035
773.437500, -0.191872
785.156250, -0.187482
796.875000, -0.180879
808.593750, -0.172103
820.312500, -0.161220
832.031250, -0.148321
843.750000, -0.133525
855.468750, -0.116977
867.187500, -0.098846
878.906250, -0.079326
890.625000, -0.058636
902.343750, -0.037016
914.062500, -0.014726
925.781250, 0.007954
937.500000, 0.030726
949.218750, 0.053277
960.937500, 0.075278
972.656250, 0.096390
984.375000, 0.116261
996.093750, 0.134532
1007.812500, 0.150835
1019.531250, 0.164798
1031.250000, 0.176042
1042.968750, 0.184187
1054.687500, 0.188850
1066.406250, 0.189648
1078.125000, 0.186198
1089.843750, 0.178117
1101.562500, 0.165024
1113.281250, 0.146541
1125.000000, 0.122290
1136.718750, 0.091897
1148.437500, 0.054992
1160.156250, 0.011206
1171.875000, -0.039828
1183.593750, -0.098473
1195.312500, -0.165091
1207.031250, -0.240042
1218.750000, -0.323687
1230.468750, -0.416384
1242.187500, -0.518494
1253.906250, -0.630377
1265.625000, -0.752398
1277.343750, -0.884922
1289.062500, -1.028323
1300.781250, -1.182976
1312.500000, -1.349267
1324.218750, -1.527589
1335.937500, -1.718345
1347.656250, -1.921950
1359.375000, -2.138834
1371.093750, -2.369443
1382.812500, -2.614240
1394.531250, -2.873711
1406.250000, -3.148364
1417.968750, -3.438737
1429.687500, -3.745395
1441.406250, -4.068940
1453.125000, -4.410015
1464.843750, -4.769305
1476.562500, -5.147546
1488.281250, -5.545533
1500.000000, -5.964127
1511.718750, -6.404260
1523.437500, -6.866955
1535.156250, -7.353330
1546.875000, -7.864618
1558.593750, -8.402184
1570.312500, -8.967549
1582.031250, -9.562414
1593.750000, -10.188693
1605.468750, -10.848557
1617.187500, -11.544485
1628.906250, -12.279325
1640.625000, -13.056384
1652.343750, -13.879531
1664.062500, -14.753347
1675.781250, -15.683319
1687.500000, -16.676105
1699.218750, -17.739917
1710.937500, -18.885060
1722.656250, -20.124751
1734.375000, -21.476365
1746.093750, -22.963459
1757.812500, -24.619193
1769.531250, -26.492540
1781.250000, -28.660540
1792.968750, -31.255404
1804.687500, -34.535283
1816.406250, -39.125460
1828.125000, -47.441682
1839.843750, -55.366331
1851.562500, -43.326383
1863.281250, -39.073378
1875.000000, -36.676749
1886.718750, -35.158739
1898.437500, -34.170502
1910.156250, -33.549387
1921.875000, -33.208688
1933.593750, -33.099297
1945.312500, -33.193735
1957.031250, -33.478945
1968.750000, -33.953254
1980.468750, -34.625940
1992.187500, -35.519175
2003.906250, -36.673336
2015.625000, -38.158737
2027.343750, -40.102632
2039.062500, -42.760751
2050.781250, -46.763199
2062.500000, -54.585451
2074.218750, -61.342120
2085.937500, -49.027573
2097.656250, -44.238665
2109.375000, -41.281624
2121.093750, -39.191966
2132.812500, -37.620767
2144.531250, -36.402034
2156.250000, -35.444041
2167.968750, -34.691133
2179.687500, -34.107435
2191.406250, -33.668949
2203.125000, -33.359369
2214.843750, -33.167732
2226.562500, -33.087055
2238.281250, -33.113567
2250.000000, -33.246327
2261.718750, -33.487146
2273.437500, -33.840787
2285.156250, -34.315501
2296.875000, -34.924024
2308.593750, -35.685305
2320.312500, -36.627535
2332.031250, -37.793666
2343.750000, -39.252215
2355.468750, -41.120757
2367.187500, -43.625397
2378.906250, -47.292694
2390.625000, -53.942328
2402.343750, -69.965177
2414.062500, -51.588217
2425.781250, -46.168843
2437.500000, -42.928793
2449.218750, -40.651509
2460.937500, -38.929299
2472.656250, -37.575205
2484.375000, -36.488063
2496.093750, -35.607205
2507.812500, -34.893672
2519.531250, -34.321272
2531.250000, -33.871880
2542.968750, -33.532805
2554.687500, -33.295229
2566.406250, -33.153269
2578.125000, -33.103406
2589.843750, -33.144178
2601.562500, -33.276056
2613.281250, -33.501491
2625.000000, -33.825129
2636.718750, -34.254258
2648.437500, -34.799551
2660.156250, -35.476309
2671.875000, -36.306528
2683.593750, -37.322499
2695.312500, -38.573426
2707.031250, -40.138691
2718.750000, -42.157712
2730.468750, -44.909808
2742.187500, -49.097877
2753.906250, -57.713578
2765.625000, -60.748707
2777.343750, -50.102932
2789.062500, -45.515019
2800.781250, -42.592226
2812.500000, -40.478292
2824.218750, -38.852018
2835.937500, -37.557759
2847.656250, -36.508432
2859.375000, -35.650630
2871.093750, -34.949493
2882.812500, -34.381287
2894.531250, -33.929417
2906.250000, -33.582150
2917.968750, -33.331244
2929.687500, -33.171109
2941.406250, -33.098299
2953.125000, -33.111215
2964.843750, -33.209978
2976.562500, -33.396441
2988.281250, -33.674340
3000.000000, -34.049621
3011.718750, -34.530994
3023.437500, -35.130848
3035.156250, -35.866727
3046.875000, -36.763836
3058.593750, -37.859429
3070.312500, -39.211121
3082.031250, -40.914102
3093.750000, -43.141910
3105.468750, -46.264454
3117.187500, -51.333845
3128.906250, -65.396581
3140.625000, -55.692994
3152.343750, -48.394654
3164.062500, -44.540675
3175.781250, -41.943568
3187.500000, -40.014697
3199.218750, -38.508244
3210.937500, -37.298090
3222.656250, -36.311110
3234.375000, -35.501360
3246.093750, -34.838342
3257.812500, -34.301043
3269.531250, -33.874664
3281.250000, -33.548698
3292.968750, -33.315781
3304.687500, -33.170965
3316.406250, -33.111286
3328.125000, -33.135520
3339.843750, -33.244082
3351.562500, -33.439062
3363.281250, -33.724398
3375.000000, -34.106205
3386.718750, -34.593349
3398.437500, -35.198367
3410.156250, -35.938959
3421.875000, -36.840511
3433.593750, -37.940520
3445.312500, -39.296971
3457.031250, -41.005721
3468.750000, -43.241739
3480.468750, -46.378845
3492.187500, -51.485567
3503.906250, -65.897683
3515.625000, -55.621811
3527.343750, -48.400221
3539.062500, -44.566114
3550.781250, -41.977132
3562.500000, -40.051849
3574.218750, -38.546648
3585.937500, -37.336309
3597.656250, -36.348139
3609.375000, -35.536423
3621.093750, -34.870789
3632.812500, -34.330299
3644.531250, -33.900187
3656.250000, -33.569959
3667.968750, -33.332241
3679.687500, -33.182058
3691.406250, -33.116401
3703.125000, -33.133977
3714.843750, -33.235110
3726.562500, -33.421762
3738.281250, -33.697694
3750.000000, -34.068784
3761.718750, -34.543561
3773.437500, -35.134076
3785.156250, -35.857308
3796.875000, -36.737526
3808.593750, -37.810395
3820.312500, -39.130689
3832.031250, -40.788059
3843.750000, -42.943742
3855.468750, -45.933891
3867.187500, -50.672951
3878.906250, -62.216595
3890.625000, -57.173256
3902.343750, -49.041685
3914.062500, -44.967749
3925.781250, -42.265561
3937.500000, -40.272748
3949.218750, -38.721522
3960.937500, -37.476903
3972.656250, -36.461489
3984.375000, -35.627005
3996.093750, -34.941553
4007.812500, -34.383216
4019.531250, -33.936562
4031.250000, -33.590609
4042.968750, -33.337604
4054.687500, -33.172255
4066.406250, -33.091268
4078.125000, -33.093069
4089.843750, -33.177685
4101.562500, -33.346747
4113.281250, -33.603613
4125.000000, -33.953650
4136.718750, -34.404712
4148.437500, -34.967912
4160.156250, -35.658873
4171.875000, -36.499797
4183.593750, -37.523033
4195.312500, -38.777630
4207.031250, -40.342427
4218.750000, -42.355424
4230.468750, -45.092033
4242.187500, -49.241048
4253.906250, -57.684416
4265.625000, -61.390957
4277.343750, -50.454427
4289.062500, -45.812433
4300.781250, -42.862441
4312.500000, -40.728967
4324.218750, -39.085828
4335.937500, -37.775502
4347.656250, -36.710032
4359.375000, -35.835528
4371.093750, -35.116821
4382.812500, -34.529951
4394.531250, -34.058126
4406.250000, -33.689419
4417.968750, -33.415381
4429.687500, -33.230183
4441.406250, -33.130090
4453.125000, -33.113146
4464.843750, -33.179021
4476.562500, -33.328979
4488.281250, -33.565987
4500.000000, -33.894947
4511.718750, -34.323133
4523.437500, -34.860888
4535.156250, -35.522755
4546.875000, -36.329337
4558.593750, -37.310462
4570.312500, -38.510932
4582.031250, -40.001765
4593.750000, -41.904737
4605.468750, -44.455095
4617.187500, -48.207195
4628.906250, -55.139060
4640.625000, -67.877049
4652.343750, -51.856386
4664.062500, -46.596045
4675.781250, -43.400113
4687.500000, -41.132315
4699.218750, -39.403071
4710.937500, -38.031783
4722.656250, -36.920066
4734.375000, -36.008618
4746.093750, -35.259171
4757.812500, -34.645849
4769.531250, -34.150602
4781.250000, -33.760631
4792.968750, -33.466848
4804.687500, -33.262931
4816.406250, -33.144743
4828.125000, -33.109975
4839.843750, -33.157965
4851.562500, -33.289642
4863.281250, -33.507603
4875.000000, -33.816320
4886.718750, -34.222528
4898.437500, -34.735855
4910.156250, -35.369849
4921.875000, -36.143649
4933.593750, -37.084807
4945.312500, -38.234341
4957.031250, -39.656435
4968.750000, -41.459087
4980.468750, -43.844879
4992.187500, -47.267200
5003.906250, -53.158342
5015.625000, -87.169002
5027.343750, -53.508408
5039.062500, -47.438328
5050.781250, -43.954624
5062.500000, -41.536807
5074.218750, -39.713848
5085.937500, -38.277275
5097.656250, -37.116560
5109.375000, -36.166246
5121.093750, -35.384603
5132.812500, -34.743638
5144.531250, -34.223929
5156.250000, -33.811726
5167.968750, -33.497249
5179.687500, -33.273644
5191.406250, -33.136331
5203.125000, -33.082619
5214.843750, -33.111475
5226.562500, -33.223456
5238.281250, -33.420744
5250.000000, -33.707320
5261.718750, -34.089308
5273.437500, -34.575526
5285.156250, -35.178396
5296.875000, -35.915415
5308.593750, -36.811605
5320.312500, -37.903838
5332.031250, -39.248966
5343.750000, -40.940604
5355.468750, -43.148693
5367.187500, -46.233069
5378.906250, -51.203667
5390.625000, -64.420114
5402.343750, -56.159368
5414.062500, -48.640262
5425.781250, -44.724323
5437.500000, -42.096177
5449.218750, -40.147289
5460.937500, -38.625817
5472.656250, -37.403191
5484.375000, -36.405098
5496.093750, -35.584937
5507.812500, -34.911810
5519.531250, -34.364441
5531.250000, -33.927833
5542.968750, -33.591323
5554.687500, -33.347403
5566.406250, -33.190986
5578.125000, -33.118960
5589.843750, -33.129927
5601.562500, -33.224099
5613.281250, -33.403309
5625.000000, -33.671158
5636.718750, -34.033318
5648.437500, -34.498043
5660.156250, -35.076998
5671.875000, -35.786602
5683.593750, -36.650258
5695.312500, -37.702240
5707.031250, -38.994901
5718.750000, -40.613281
5730.468750, -42.708595
5742.187500, -45.590337
5753.906250, -50.070518
5765.625000, -60.091520
5777.343750, -58.656949
5789.062500, -49.595618
5800.781250, -45.308246
5812.500000, -42.510139
5824.218750, -40.462108
5835.937500, -38.874515
5847.656250, -37.603791
5859.375000, -36.568466
5871.093750, -35.718089
5882.812500, -35.019491
5894.531250, -34.449959
5906.250000, -33.993536
5917.968750, -33.638878
5929.687500, -33.377969
5941.406250, -33.205321
5953.125000, -33.117485
5964.843750, -33.112762
5976.562500, -33.191066
5988.281250, -33.353924
6000.000000, -33.604590
6011.718750, -33.948317
6023.437500, -34.392825
6035.156250, -34.949056
6046.875000, -35.632398
6058.593750, -36.464713
6070.312500, -37.477818
6082.031250, -38.719865
6093.750000, -40.268031
6105.468750, -42.256844
6117.187500, -44.952964
6128.906250, -49.014924
6140.625000, -57.100955
6152.343750, -62.348163
6164.062500, -50.706011
6175.781250, -45.951089
6187.500000, -42.953825
6199.218750, -40.793727
6210.937500, -39.133101
6222.656250, -37.810133
6234.375000, -36.734900
6246.093750, -35.852480
6257.812500, -35.127109
6269.531250, -34.534458
6281.250000, -34.057491
6292.968750, -33.684111
6304.687500, -33.405744
6316.406250, -33.216464
6328.125000, -33.112459
6339.843750, -33.091702
6351.562500, -33.153797
6363.281250, -33.299943
6375.000000, -33.533031
6386.718750, -33.857879
6398.437500, -34.281652
6410.156250, -34.814547
6421.875000, -35.470907
6433.593750, -36.271032
6445.312500, -37.244283
6457.031250, -38.434678
6468.750000, -39.911802
6480.468750, -41.794519
6492.187500, -44.311045
6503.906250, -47.993385
6515.625000, -54.689871
6527.343750, -70.019033
6539.062500, -52.143603
6550.781250, -46.740994
6562.500000, -43.492452
6574.218750, -41.197200
6585.937500, -39.451095
6597.656250, -38.068424
6609.375000, -36.948544
6621.093750, -36.031002
6632.812500, -35.276883
6644.531250, -34.659920
6656.250000, -34.161816
6667.968750, -33.769606
6679.687500, -33.474092
6691.406250, -33.268877
6703.125000, -33.149770
6714.843750, -33.114430
6726.562500, -33.162175
6738.281250, -33.293930
6750.000000, -33.512298
6761.718750, -33.821769
6773.437500, -34.229117
6785.156250, -34.744029
6796.875000, -35.380148
6808.593750, -36.156756
6820.312500, -37.101640
6832.031250, -38.256212
6843.750000, -39.685366
6855.468750, -41.498525
6867.187500, -43.901591
6878.906250, -47.357884
6890.625000, -53.349010
6902.343750, -104.292164
6914.062500, -53.299463
6925.781250, -47.332385
6937.500000, -43.883785
6949.218750, -41.484325
6960.937500, -39.673137
6972.656250, -38.245137
6984.375000, -37.091253
6996.093750, -36.146765
7007.812500, -35.370359
7019.531250, -34.734306
7031.250000, -34.219361
7042.968750, -33.811907
7054.687500, -33.502270
7066.406250, -33.283690
7078.125000, -33.151684
7089.843750, -33.103653
7101.562500, -33.138676
7113.281250, -33.257436
7125.000000, -33.462273
7136.718750, -33.757373
7148.437500, -34.149126
7160.156250, -34.646722
7171.875000, -35.263108
7183.593750, -36.016555
7195.312500, -36.933287
7207.031250, -38.052150
7218.750000, -39.433468
7230.468750, -41.177634
7242.187500, -43.469784
7253.906250, -46.712412
7265.625000, -52.098893
7277.343750, -69.740913
7289.062500, -54.726532
7300.781250, -48.004909
7312.500000, -44.315151
7324.218750, -41.795153
7335.937500, -39.910498
7347.656250, -38.432206
7359.375000, -37.241102
7371.093750, -36.267447
7382.812500, -35.467144
7394.531250, -34.810786
7406.250000, -34.278048
7417.968750, -33.854576
7429.687500, -33.530165
7441.406250, -33.297652
7453.125000, -33.152227
7464.843750, -33.091009
7476.562500, -33.112816
7488.281250, -33.218068
7500.000000, -33.408821
7511.718750, -33.688935
7523.437500, -34.064390
7535.156250, -34.543845
7546.875000, -35.139513
7558.593750, -35.868602
7570.312500, -36.755709
7582.031250, -37.837031
7593.750000, -39.168249
7605.468750, -40.840739
7617.187500, -43.019512
7628.906250, -46.050916
7640.625000, -50.889958
7652.343750, -63.109218
7664.062500, -56.698096
7675.781250, -48.850239
7687.500000, -44.848390
7699.218750, -42.180300
7710.937500, -40.208159
7722.656250, -38.671396
7734.375000, -37.437925
7746.093750, -36.431742
7757.812500, -35.605336
7769.531250, -34.927274
7781.250000, -34.375945
7792.968750, -33.936134
7804.687500, -33.597033
7816.406250, -33.351033
7828.125000, -33.192978
7839.843750, -33.119706
7851.562500, -33.129791
7863.281250, -33.223429
7875.000000, -33.402448
7886.718750, -33.670462
7898.437500, -34.033169
7910.156250, -34.498869
7921.875000, -35.079300
7933.593750, -35.790998
7945.312500, -36.657553
7957.031250, -37.713547
7968.750000, -39.011871
7980.468750, -40.638591
7992.187500, -42.747148
8003.906250, -45.652901
8015.625000, -50.189941
8027.343750, -60.520268
8039.062500, -58.277991
8050.781250, -49.450328
8062.500000, -45.214294
8074.218750, -42.439273
8085.937500, -40.404783
8097.656250, -38.826424
8109.375000, -37.562670
8121.093750, -36.533023
8132.812500, -35.687550
8144.531250, -34.993394
8156.250000, -34.428046
8167.968750, -33.975687
8179.687500, -33.625082
8191.406250, -33.368303
8203.125000, -33.199942
8214.843750, -33.116629
8226.562500, -33.116745
8238.281250, -33.200301
8250.000000, -33.368934
8261.718750, -33.626037
8273.437500, -33.977045
8285.156250, -34.429922
8296.875000, -34.995949
8308.593750, -35.691010
8320.312500, -36.537717
8332.031250, -37.569087
8343.750000, -38.835325
8355.468750, -40.417442
8367.187500, -42.458052
8378.906250, -45.244345
8390.625000, -49.506745
8402.343750, -58.457089
8414.062500, -60.264460
8425.781250, -50.101692
8437.500000, -45.594504
8449.218750, -42.700907
8460.937500, -40.598751
8472.656250, -38.975835
8484.375000, -37.679919
8496.093750, -36.625485
8507.812500, -35.759932
8519.531250, -35.048842
8531.250000, -34.468724
8542.968750, -34.003103
8554.687500, -33.640280
8566.406250, -33.371976
8578.125000, -33.192506
8589.843750, -33.098259
8601.562500, -33.087400
8613.281250, -33.159721
8625.000000, -33.316624
8636.718750, -33.561236
8648.437500, -33.898663
8660.156250, -34.336442
8671.875000, -34.885276
8683.593750, -35.560225
8695.312500, -36.382660
8707.031250, -37.383629
8718.750000, -38.609986
8730.468750, -40.136514
8742.187500, -42.092752
8753.906250, -44.732936
8765.625000, -48.673562
8777.343750, -56.282460
8789.062500, -64.013737
8800.781250, -51.095010
8812.500000, -46.163387
8824.218750, -43.095734
8835.937500, -40.897845
8847.656250, -39.213719
8859.375000, -37.874822
8871.093750, -36.788183
8882.812500, -35.897302
8894.531250, -35.165519
8906.250000, -34.567955
8917.968750, -34.087229
8929.687500, -33.711014
8941.406250, -33.430583
8953.125000, -33.239908
8964.843750, -33.135111
8976.562500, -33.114129
8988.281250, -33.176553
9000.000000, -33.323594
9011.718750, -33.558180
9023.437500, -33.885193
9035.156250, -34.311902
9046.875000, -34.848666
9058.593750, -35.510067
9070.312500, -36.316782
9082.031250, -37.298773
9093.750000, -38.501084
9105.468750, -39.995181
9117.187500, -41.903779
9128.906250, -44.464408
9140.625000, -48.238783
9152.343750, -55.248816
9164.062500, -67.258993
9175.781250, -51.730462
9187.500000, -46.514221
9199.218750, -43.335411
9210.937500, -41.077216
9222.656250, -39.354537
9234.375000, -37.988370
9246.093750, -36.881045
9257.812500, -35.973637
9269.531250, -35.228099
9281.250000, -34.618700
9292.968750, -34.127501
9304.687500, -33.741787
9316.406250, -33.452548
9328.125000, -33.253541
9339.843750, -33.140710
9351.562500, -33.111839
9363.281250, -33.166375
9375.000000, -33.305386
9386.718750, -33.531641
9398.437500, -33.849840
9410.156250, -34.267023
9421.875000, -34.793247
9433.593750, -35.442673
9445.312500, -36.235360
9457.031250, -37.200303
9468.750000, -38.380932
9480.468750, -39.845784
9492.187500, -41.711609
9503.906250, -44.201596
9515.625000, -47.831991
9527.343750, -54.362911
9539.062500, -72.030870
9550.781250, -52.351697
9562.500000, -46.837021
9574.218750, -43.546799
9585.937500, -41.229197
9597.656250, -39.468812
9609.375000, -38.076015
9621.093750, -36.948439
9632.812500, -36.024752
9644.531250, -35.265541
9656.250000, -34.644234
9667.968750, -34.142337
9679.687500, -33.746749
9691.406250, -33.448172
9703.125000, -33.240134
9714.843750, -33.118386
9726.562500, -33.080533
9738.281250, -33.125848
9750.000000, -33.255209
9761.718750, -33.471169
9773.437500, -33.778165
9785.156250, -34.182899
9796.875000, -34.694974
9808.593750, -35.327906
9820.312500, -36.100802
9832.031250, -37.041172
9843.750000, -38.189974
9855.468750, -39.611290
9867.187500, -41.412924
